Frequency (Hz),Magnitude (dB),Phase (°)
5.0,48.277731645,-169.32347667
5.376197,49.645905357,-179.0762723
5.780698,50.888964348,171.12145941
6.215634,51.921829151,162.18778494
6.683295,52.858639321,153.41983639
7.186141,53.751227795,144.29791657
7.726822,54.486338917,136.15684572
8.308183,55.178812341,127.96612389
8.933285,55.797262789,120.25590179
9.60542,56.326346387,113.07651998
10.328125,56.807793982,106.07967581
11.105207,57.226124259,99.619648753
11.940755,57.603878367,93.410631402
12.83917,57.941076614,87.489174744
13.805181,58.232291076,82.09789964
14.843874,58.499371986,76.83352626
15.960717,58.734581233,71.905578578
17.161591,58.940389115,67.325926072
18.452818,59.126905863,62.957414926
19.841196,59.307068868,58.802553778
21.334035,59.453629802,54.936543721
22.939194,59.582317809,51.327609636
24.665124,59.695115447,47.950681878
26.520912,59.796796286,44.777309111
28.516328,59.885573634,41.760020532
30.661878,59.965492265,38.990923133
32.968858,60.032479759,36.372073122
35.449413,60.092387422,33.924371709
38.116604,60.146093052,31.655750296
40.984473,60.193318832,29.50875066
44.068118,60.234178618,27.494573392
47.383775,60.270898614,25.647638883
50.948899,60.304784502,23.89730192
54.782261,60.333702267,22.26692592
58.904043,60.358041922,20.760158974
63.335945,60.379467569,19.341341438
68.1013,60.397121568,18.017808548
73.225198,60.416245782,16.781363286
78.734614,60.430079891,15.63105086
84.658555,60.442165217,14.572108248
91.02821,60.456194132,13.569450289
97.877114,60.463543595,12.63028666
105.241324,60.473209294,11.767368883
113.159613,60.481020464,10.940579656
121.673669,60.490028576,10.181035329
130.828317,60.495994414,9.4957210497
140.671754,60.502665346,8.8333555644
151.255806,60.507375428,8.2309891519
162.636194,60.509732956,7.6490066273
174.872836,60.514814814,7.1292413188
188.030155,60.519114669,6.6228081072
202.177421,60.524418678,6.1721810646
217.389119,60.524014803,5.7422383883
233.745336,60.527878006,5.3402507626
251.332183,60.528318618,4.9673358936
270.242253,60.532291424,4.6226752215
290.575105,60.533627317,4.3046427472
312.437787,60.536034774,3.9839169194
335.945403,60.536988192,3.7038744192
361.221717,60.540252352,3.4435438353
388.399805,60.538660671,3.224713211
417.622754,60.539703734,2.9807404692
449.044419,60.539282059,2.7603434552
482.830229,60.541083696,2.5644644944
519.158062,60.540387857,2.3957302735
558.219178,60.542294954,2.2158863862
600.219227,60.543976995,2.051612895
645.379332,60.542735104,1.9140919381
693.937253,60.545228798,1.7653628455
746.148642,60.544990581,1.6138394862
802.288381,60.545912247,1.5128995424
862.652038,60.543843194,1.390764088
927.557418,60.545041665,1.2978226077
997.346235,60.546480741,1.1825513908
1072.385919,60.547637347,1.121080739
1153.071539,60.544984941,0.99952632391
1239.827893,60.546641996,0.91055036462
1333.111739,60.545105324,0.8476380047
1433.414201,60.545927844,0.77292300955
1541.263354,60.544708096,0.69366367323
1657.227009,60.544353201,0.62537789213
1781.915693,60.546144869,0.57051267238
1915.985873,60.545023211,0.49697285754
2060.143406,60.547371407,0.4540351886
2215.147258,60.545120568,0.39325138181
2381.8135,60.544325419,0.3609863428
2561.019601,60.546156286,0.28504561947
2753.709054,60.544559501,0.24259457527
2960.896335,60.541977569,0.19718429641
3183.672253,60.549836063,0.16054794857
3423.209687,60.549462152,0.10164051019
3680.769761,60.547913381,0.08221606371
3957.708488,60.549201399,0.029621814669
4255.483905,60.543071312,0.0068374994906
4575.663752,60.542497933,-0.061148814208
4919.933722,60.542423684,-0.1110951568
5290.106341,60.540393264,-0.13676079574
5688.130508,60.54232911,-0.17627369518
6116.101754,60.53915282,-0.21075368274
6576.27328,60.536826685,-0.24565558545
7071.067812,60.537112326,-0.27036049646
7603.090363,60.534521998,-0.28237076918
8175.141946,60.530225167,-0.28944037422
8790.234319,60.531893946,-0.35272483061
9451.605842,60.534700855,-0.38848177825
10162.73853,60.535203548,-0.43474448868
10927.376379,60.532710389,-0.40513890808
11749.545084,60.530274943,-0.46456741243
12633.573228,60.532089461,-0.49678713591
13584.115076,60.53378472,-0.53463866314
14606.175075,60.531245254,-0.58803466417
15705.134205,60.5335371,-0.65677098046
16886.778307,60.531554638,-0.68626273599
18157.328544,60.529518633,-0.73650124345
19523.474155,60.531079929,-0.80887651102
20992.407676,60.534031007,-0.87131708309
22571.862801,60.537711348,-0.96675258223
24270.155104,60.538365801,-1.0198158211
26096.225818,60.5395344,-1.1217062567
28059.688906,60.535420409,-1.2291298419
30170.881683,60.536330137,-1.3095837689
32440.919233,60.541324151,-1.4361663359
34881.752935,60.543845498,-1.5639818144
37506.233381,60.544754453,-1.6996010658
40328.178031,60.547369428,-1.8242120429
43362.443964,60.545660872,-1.9413543413
46625.006097,60.541111749,-2.0720184571
50133.041286,60.534929293,-2.2473395713
53905.018765,60.541536777,-2.4145737645
57960.797381,60.537497089,-2.6159822087
62321.730148,60.537183475,-2.8196193932
67010.776664,60.534464966,-3.0076081324
72052.623996,60.534430476,-3.2173593558
77473.816648,60.536627974,-3.4615263724
83302.896316,60.533436364,-3.6837611153
89570.552153,60.536741727,-3.9839100062
96309.782347,60.533230333,-4.2183601894
103556.06785,60.53180842,-4.5712090088
111347.55916,60.536275613,-4.879025503
119725.27722,60.541491783,-5.2224563771
128733.32936,60.545832337,-5.6089917475
138419.14148,60.550677284,-6.012426862
148833.70782,60.554872821,-6.482612449
160031.85937,60.555223782,-7.0183133882
172072.55258,60.563563856,-7.5421657511
185019.17972,60.569129497,-8.1471843892
198939.90269,60.566474113,-8.786345062
213908.01181,60.574300898,-9.4757648757
230002.31175,60.574329,-10.231158691
247307.53637,60.574811699,-11.06481718
265914.79485,60.569386315,-11.88129664
285922.05138,60.571952912,-12.838640383
307434.6409,60.568236256,-13.801196904
330565.82369,60.566168583,-14.866140089
355437.38166,60.571359029,-16.028380879
382180.2595,60.564960681,-17.245479836
410935.25411,60.560520513,-18.545164509
441853.75584,60.559493953,-20.009899582
475098.54558,60.55357478,-21.428676743
510844.65171,60.545963732,-23.088725683
549280.27165,60.535607021,-24.841446351
590607.76269,60.52795485,-26.757656214
635044.70733,60.512915376,-28.78921675
682825.05883,60.50154445,-31.007960493
734200.37296,60.480627337,-33.367697142
789441.13237,60.457677211,-35.909339732
848838.17065,60.422103503,-38.63878739
912704.20354,60.385960813,-41.642703729
981375.47527,60.346916852,-44.8573949
1055213.5289,60.293430687,-48.340653858
1134607.1098,60.210239086,-52.135608361
1219974.2121,60.111335499,-56.212296322
1311764.2798,59.985857606,-60.61471376
1410460.5726,59.830939857,-65.300208518
1516582.7104,59.648415908,-70.3184568
1630689.409,59.420399289,-75.687854756
1753381.4214,59.144138411,-81.497681433
1885304.7013,58.806863542,-87.66062214
2027153.803,58.394795992,-94.112862482
2179675.5391,57.907484212,-100.8461563
2343672.9116,57.338301195,-107.94034682
2520009.3399,56.662137073,-115.15410636
2709613.2066,55.905299519,-122.5190419
2913482.7452,55.046806298,-129.98182718
3132691.2955,54.093506827,-137.41115429
3368392.9548,53.052104645,-144.79039381
3621828.6539,51.918135768,-152.00254361
3894332.6905,50.721619381,-159.20036375
4187339.7539,49.452116025,-166.01651994
4502392.4785,48.138836776,-172.65249589
4841149.5655,46.765283507,-178.99461628
5205394.5159,45.354980607,174.9073155
5597045.0199,43.919474974,168.96088792
6018163.0535,42.46365998,163.36907387
6470965.7346,40.991709479,157.89409485
6957836.9955,39.519787365,152.62332448
7481340.1339,38.054285826,147.54905747
8044231.3086,36.600864039,142.61282409
8649474.0498,35.166414378,137.7387346
9300254.862,33.759738202,132.89426291
10000000.0,32.386227843,128.16214818
5.0,48.261700025,-169.17309676
5.376197,49.629212666,-178.93695866
5.780698,50.874507374,171.25827086
6.215634,51.9140917,162.31386349
6.683295,52.849015969,153.49750074
7.186141,53.743119285,144.35560731
7.726822,54.479825734,136.21326497
8.308183,55.17148432,127.97926292
8.933285,55.791292429,120.25075579
9.60542,56.323059489,113.05747473
10.328125,56.804362674,106.04797081
11.105207,57.221864506,99.561132983
11.940755,57.598615884,93.348109396
12.83917,57.938098536,87.432539376
13.805181,58.226704788,82.036639132
14.843874,58.495709082,76.769304287
15.960717,58.729711873,71.835534436
17.161591,58.935512792,67.263268522
18.452818,59.122585876,62.886376515
19.841196,59.297783996,58.732613319
21.334035,59.448360699,54.866070032
22.939194,59.578445639,51.244096156
24.665124,59.691710139,47.875320622
26.520912,59.791518824,44.730082323
28.516328,59.883241751,41.691518794
30.661878,59.959869227,38.939351132
32.968858,60.028046924,36.320621171
35.449413,60.090303284,33.871350061
38.116604,60.14407026,31.610985946
40.984473,60.190358585,29.444024821
44.068118,60.23312818,27.468274776
47.383775,60.270472696,25.611017691
50.948899,60.299507888,23.856085932
54.782261,60.331009899,22.234713318
58.904043,60.355452503,20.726822625
63.335945,60.378117304,19.297689812
68.1013,60.398377699,17.984619441
73.225198,60.414348091,16.773933417
78.734614,60.43021122,15.596102558
84.658555,60.441070667,14.530893792
91.02821,60.453264242,13.550922517
97.877114,60.464478598,12.594643482
105.241324,60.47197799,11.741905345
113.159613,60.48280699,10.916642057
121.673669,60.490084084,10.15883599
130.828317,60.496107557,9.439695386
140.671754,60.502633424,8.8082819146
151.255806,60.506515803,8.1658487568
162.636194,60.509457826,7.6080931391
174.872836,60.512950554,7.0934163814
188.030155,60.516506199,6.5830714571
202.177421,60.521847211,6.1348173708
217.389119,60.524707888,5.6907515341
233.745336,60.524617425,5.2811627994
251.332183,60.528160543,4.9209071197
270.242253,60.528495022,4.5655628693
290.575105,60.532767117,4.2474497598
312.437787,60.531597843,3.9303146735
335.945403,60.532907691,3.648187603
361.221717,60.534464037,3.3844152571
388.399805,60.536797355,3.1310637911
417.622754,60.538951154,2.9042684595
449.044419,60.5382479,2.6856943564
482.830229,60.540818753,2.4729532713
519.158062,60.540905087,2.2801805531
558.219178,60.541926778,2.1106104849
600.219227,60.543659493,1.9357271696
645.379332,60.544453064,1.7902726501
693.937253,60.543926173,1.6528647581
746.148642,60.541157829,1.4907504094
802.288381,60.543347522,1.3643846087
862.652038,60.543066013,1.2331390212
927.557418,60.544658433,1.1299213004
997.346235,60.544762962,0.99580470578
1072.385919,60.54469995,0.88807401999
1153.071539,60.544254006,0.79674671769
1239.827893,60.54530003,0.69435147251
1333.111739,60.546265835,0.6084246591
1433.414201,60.544118033,0.49902693787
1541.263354,60.545649593,0.41173691183
1657.227009,60.545005425,0.32552031173
1781.915693,60.54688034,0.21574817742
1915.985873,60.543844906,0.14627030988
2060.143406,60.54440342,0.067607403491
2215.147258,60.545202625,-0.02075560137
2381.8135,60.543476524,-0.096217558195
2561.019601,60.543568881,-0.18750568569
2753.709054,60.541055517,-0.28660099299
2960.896335,60.540463064,-0.36734227939
3183.672253,60.551141546,-0.45806337701
3423.209687,60.54427242,-0.5468582267
3680.769761,60.546804521,-0.64565358375
3957.708488,60.54438542,-0.71815726261
4255.483905,60.546598797,-0.82094688601
4575.663752,60.543018465,-0.89273125093
4919.933722,60.540486343,-1.0295772305
5290.106341,60.543204319,-1.1285106724
5688.130508,60.538086686,-1.2542852398
6116.101754,60.539825912,-1.3445588559
6576.27328,60.539707586,-1.46662405
7071.067812,60.535806153,-1.6023369708
7603.090363,60.530517364,-1.717084315
8175.141946,60.535985798,-1.8250395048
8790.234319,60.532253858,-1.9438802499
9451.605842,60.53432536,-2.1227118638
10162.73853,60.532631597,-2.3430224293
10927.376379,60.52891609,-2.4489691766
11749.545084,60.529306426,-2.638117238
12633.573228,60.532988213,-2.8526558614
13584.115076,60.531740081,-3.0594746626
14606.175075,60.527356173,-3.3340867151
15705.134205,60.528434741,-3.5841037127
16886.778307,60.526303309,-3.8214969366
18157.328544,60.530981624,-4.1331953535
19523.474155,60.533642938,-4.4573814046
20992.407676,60.535830822,-4.8072363628
22571.862801,60.532792456,-5.1563290843
24270.155104,60.542756922,-5.5526794205
26096.225818,60.540231752,-5.9825808449
28059.688906,60.539361077,-6.4522222107
30170.881683,60.538864267,-6.9492048709
32440.919233,60.541929809,-7.4870413811
34881.752935,60.546180962,-8.0450273742
37506.233381,60.549169554,-8.6473685661
40328.178031,60.546640503,-9.2992921988
43362.443964,60.544309118,-9.9881846124
46625.006097,60.541999605,-10.7590846
50133.041286,60.535775237,-11.524001519
53905.018765,60.538179643,-12.411075062
57960.797381,60.543367718,-13.39162724
62321.730148,60.537198906,-14.35937808
67010.776664,60.538840054,-15.438598368
72052.623996,60.538555354,-16.599384286
77473.816648,60.534586426,-17.846183886
83302.896316,60.542741182,-19.17809522
89570.552153,60.543811253,-20.641282535
96309.782347,60.545911309,-22.152449238
103556.06785,60.547740946,-23.782629859
111347.55916,60.553005175,-25.61789095
119725.27722,60.559586335,-27.522994719
128733.32936,60.564853005,-29.649489846
138419.14148,60.571679003,-31.866234269
148833.70782,60.582667623,-34.327049453
160031.85937,60.592012467,-36.965993039
172072.55258,60.595296134,-39.839699717
185019.17972,60.601652247,-42.958300579
198939.90269,60.605050566,-46.248309736
213908.01181,60.614654338,-49.842881771
230002.31175,60.61871205,-53.76899749
247307.53637,60.61984263,-57.918014555
265914.79485,60.623208386,-62.421638887
285922.05138,60.62042194,-67.333260141
307434.6409,60.620560112,-72.649612143
330565.82369,60.619687955,-78.427725265
355437.38166,60.622153212,-84.72997627
382180.2595,60.614590978,-91.590279799
410935.25411,60.599554208,-99.120500857
441853.75584,60.574167164,-107.3116457
475098.54558,60.534989395,-116.34315019
510844.65171,60.466132323,-126.39142383
549280.27165,60.353968693,-137.5454739
590607.76269,60.169678372,-149.96418904
635044.70733,59.861273997,-163.80321659
682825.05883,59.393845028,-179.09387806
734200.37296,58.658627077,164.26343307
789441.13237,57.623579036,146.59774938
848838.17065,56.234955365,128.52123837
912704.20354,54.509969823,110.71797765
981375.47527,52.494668443,93.637854041
1055213.5289,50.261482488,77.496842455
1134607.1098,47.873378926,62.357339204
1219974.2121,45.372068649,48.026720837
1311764.2798,42.787417424,34.432128364
1410460.5726,40.129547913,21.421202297
1516582.7104,37.41235981,8.836020648
1630689.409,34.637308528,-3.3827609179
1753381.4214,31.811303474,-15.398117737
1885304.7013,28.904745163,-27.293979344
2027153.803,25.92298794,-38.96864561
2179675.5391,22.875827045,-50.636257433
2343672.9116,19.718285156,-62.048041147
2520009.3399,16.475514671,-73.343688655
2709613.2066,13.157577282,-84.486638891
2913482.7452,9.7731196828,-95.335374362
3132691.2955,6.2363381179,-105.80905729
3368392.9548,2.6635212383,-116.40767807
3621828.6539,-0.95417741626,-126.21691323
3894332.6905,-4.7479482253,-136.57134719
4187339.7539,-8.6256120936,-145.33737027
4502392.4785,-12.30685277,-155.82001154
4841149.5655,-15.770344771,-164.67014891
5205394.5159,-19.479704458,-169.81317018
5597045.0199,-23.631862468,176.2449137
6018163.0535,-29.04460233,155.20351686
6470965.7346,-32.87164576,-176.91408481
6957836.9955,-40.039381675,151.76545269
7481340.1339,-45.178612189,158.3246654
8044231.3086,-36.491662319,75.312034747
8649474.0498,-49.129148961,-99.387558968
9300254.862,-38.454170969,148.71366604
10000000.0,-45.522891074,85.916981134
5.0,48.251855224,-168.96576551
5.376197,49.623869069,-178.74147644
5.780698,50.87213343,171.45540947
6.215634,51.910392682,162.47653027
6.683295,52.846694625,153.65713868
7.186141,53.74314995,144.51804413
7.726822,54.478181335,136.35080145
8.308183,55.171260233,128.13229332
8.933285,55.79147658,120.41449604
9.60542,56.320550733,113.20938929
10.328125,56.802599173,106.17867417
11.105207,57.221506382,99.691915928
11.940755,57.597648101,93.461331242
12.83917,57.935851114,87.523913577
13.805181,58.2267553,82.099374466
14.843874,58.492270745,76.817019712
15.960717,58.727574375,71.880805202
17.161591,58.933536548,67.307204148
18.452818,59.118085973,62.91655513
19.841196,59.296137366,58.762651108
21.334035,59.445989589,54.890781753
22.939194,59.575669982,51.264625744
24.665124,59.686971219,47.889714977
26.520912,59.788517954,44.716923208
28.516328,59.8790592,41.694543567
30.661878,59.956501063,38.911735648
32.968858,60.025907731,36.299110816
35.449413,60.086239512,33.857377495
38.116604,60.137913367,31.585096919
40.984473,60.188395827,29.421958101
44.068118,60.228847469,27.435474733
47.383775,60.266290612,25.561475354
50.948899,60.298330368,23.810988835
54.782261,60.326266185,22.186136166
58.904043,60.351967454,20.666748509
63.335945,60.375189808,19.2470118
68.1013,60.39218586,17.921347761
73.225198,60.410345496,16.683941177
78.734614,60.424515684,15.532537594
84.658555,60.435059415,14.449242359
91.02821,60.448610647,13.459853925
97.877114,60.458633447,12.512387848
105.241324,60.467391837,11.636184662
113.159613,60.476950551,10.790514079
121.673669,60.482234381,10.050007651
130.828317,60.488796813,9.3268432206
140.671754,60.495622404,8.6620867758
151.255806,60.499634454,8.0126686495
162.636194,60.505056385,7.441704171
174.872836,60.509787895,6.9149819297
188.030155,60.51273805,6.3938576866
202.177421,60.51344673,5.914240134
217.389119,60.519196984,5.4861056703
233.745336,60.521372961,5.0648944865
251.332183,60.521477422,4.6626327503
270.242253,60.524743168,4.2879458574
290.575105,60.5267133,3.9725459094
312.437787,60.528169634,3.6308690674
335.945403,60.528176047,3.3194536139
361.221717,60.52929908,3.0386614664
388.399805,60.531393988,2.7427122978
417.622754,60.532017395,2.49422431
449.044419,60.533498068,2.2456059964
482.830229,60.534298405,1.9942524046
519.158062,60.535058112,1.7881337886
558.219178,60.537488211,1.5667166294
600.219227,60.536561494,1.3465294651
645.379332,60.537290391,1.1421260987
693.937253,60.537666754,0.95040759262
746.148642,60.536628168,0.76231288144
802.288381,60.537596858,0.57210908505
862.652038,60.537036875,0.40704725444
927.557418,60.53860966,0.21521864963
997.346235,60.538794957,0.033700035229
1072.385919,60.540213769,-0.1618417726
1153.071539,60.535204418,-0.34407116924
1239.827893,60.538842937,-0.50330639169
1333.111739,60.538205273,-0.71559759281
1433.414201,60.538755192,-0.89382920829
1541.263354,60.538744419,-1.0942235616
1657.227009,60.535869227,-1.2902381913
1781.915693,60.53818201,-1.5145366205
1915.985873,60.537415021,-1.7436448326
2060.143406,60.538742499,-1.934114621
2215.147258,60.537895891,-2.1788109022
2381.8135,60.53448026,-2.4371566555
2561.019601,60.534171746,-2.7048830008
2753.709054,60.533376494,-2.9563574172
2960.896335,60.530791453,-3.2384813745
3183.672253,60.542805757,-3.5629674759
3423.209687,60.540519358,-3.8747482776
3680.769761,60.535841848,-4.2223343317
3957.708488,60.532075322,-4.5898209124
4255.483905,60.531762637,-4.9867302142
4575.663752,60.536158556,-5.3924835186
4919.933722,60.528699629,-5.8125242134
5290.106341,60.523020862,-6.2744037767
5688.130508,60.525773987,-6.7269912465
6116.101754,60.520493237,-7.2878563071
6576.27328,60.517253423,-7.8490068621
7071.067812,60.514707221,-8.4699310771
7603.090363,60.514002998,-9.10545177
8175.141946,60.509727425,-9.7717786169
8790.234319,60.502128451,-10.498604844
9451.605842,60.505973763,-11.325308722
10162.73853,60.504544201,-12.192649318
10927.376379,60.498087889,-13.02303873
11749.545084,60.497897594,-14.019602948
12633.573228,60.495813849,-15.104593763
13584.115076,60.492294031,-16.22704478
14606.175075,60.486386276,-17.490792582
15705.134205,60.480693722,-18.80004622
16886.778307,60.47743726,-20.175168974
18157.328544,60.472171847,-21.718079331
19523.474155,60.466484281,-23.393068391
20992.407676,60.463212442,-25.1628151
22571.862801,60.457951042,-27.019361202
24270.155104,60.453725647,-29.085314569
26096.225818,60.446681813,-31.299384886
28059.688906,60.427002101,-33.711801838
30170.881683,60.408949061,-36.325252827
32440.919233,60.408582612,-39.122797763
34881.752935,60.391962852,-42.153289086
